ref_vel_x (m/s),ref_vel_y (m/s),ref_vel_z (m/s)
0.000000000000000000e+00,0.000000000000000000e+00,0.000000000000000000e+00
9.999999999999998473e-03,9.999999999999998473e-03,0.000000000000000000e+00
2.899999999999999453e-02,2.899999999999999453e-02,0.000000000000000000e+00
5.609999999999998321e-02,5.609999999999998321e-02,0.000000000000000000e+00
9.048999999999997323e-02,9.048999999999997323e-02,0.000000000000000000e+00
1.314409999999999745e-01,1.314409999999999745e-01,0.000000000000000000e+00
1.782968999999999804e-01,1.782968999999999804e-01,0.000000000000000000e+00
2.304672099999999779e-01,2.304672099999999779e-01,0.000000000000000000e+00
2.874204889999999457e-01,2.874204889999999457e-01,0.000000000000000000e+00
3.486784400999999312e-01,3.486784400999999312e-01,0.000000000000000000e+00
4.138105960899999269e-01,4.138105960899999269e-01,0.000000000000000000e+00
4.824295364809999542e-01,4.824295364809999542e-01,0.000000000000000000e+00
5.541865828329000099e-01,5.541865828329000099e-01,0.000000000000000000e+00
6.287679245496100577e-01,6.287679245496100577e-01,0.000000000000000000e+00
7.058911320946490431e-01,7.058911320946490431e-01,0.000000000000000000e+00
7.853020188851841388e-01,7.853020188851841388e-01,0.000000000000000000e+00
8.667718169966657227e-01,8.667718169966657227e-01,0.000000000000000000e+00
9.500946352969991127e-01,9.500946352969991127e-01,0.000000000000000000e+00
1.035085171767299084e+00,1.035085171767299084e+00,0.000000000000000000e+00
1.121576654590569211e+00,1.121576654590569211e+00,0.000000000000000000e+00
1.209418989131512134e+00,1.209418989131512134e+00,0.000000000000000000e+00
1.298477090218360885e+00,1.298477090218360885e+00,0.000000000000000000e+00
1.388629381196524681e+00,1.388629381196524681e+00,0.000000000000000000e+00
1.479766443076872218e+00,1.479766443076872218e+00,0.000000000000000000e+00
1.571789798769184898e+00,1.571789798769184898e+00,0.000000000000000000e+00
1.664610818892266364e+00,1.664610818892266364e+00,0.000000000000000000e+00
1.758149737003039670e+00,1.758149737003039670e+00,0.000000000000000000e+00
1.852334763302735610e+00,1.852334763302735610e+00,0.000000000000000000e+00
1.947101286972461986e+00,1.947101286972461986e+00,0.000000000000000000e+00
2.042391158275215890e+00,2.042391158275215890e+00,0.000000000000000000e+00
2.138152042447694079e+00,2.138152042447694079e+00,0.000000000000000000e+00
2.234336838202924724e+00,2.234336838202924724e+00,0.000000000000000000e+00
2.330903154382632181e+00,2.330903154382632181e+00,0.000000000000000000e+00
2.427812838944368945e+00,2.427812838944368945e+00,0.000000000000000000e+00
2.525031555049932042e+00,2.525031555049932042e+00,0.000000000000000000e+00
2.622528399544938882e+00,2.622528399544938882e+00,0.000000000000000000e+00
2.720275559590445091e+00,2.720275559590445091e+00,0.000000000000000000e+00
2.818248003631400600e+00,2.818248003631400600e+00,0.000000000000000000e+00
2.916423203268260433e+00,2.916423203268260433e+00,0.000000000000000000e+00
3.014780882941434204e+00,3.014780882941434204e+00,0.000000000000000000e+00
3.113302794647290650e+00,3.113302794647290650e+00,0.000000000000000000e+00
3.211972515182561771e+00,3.211972515182561771e+00,0.000000000000000000e+00
3.310775263664305523e+00,3.310775263664305523e+00,0.000000000000000000e+00
3.409697737297875175e+00,3.409697737297875175e+00,0.000000000000000000e+00
3.508727963568087471e+00,3.508727963568087471e+00,0.000000000000000000e+00
3.607855167211278857e+00,3.607855167211278857e+00,0.000000000000000000e+00
3.707069650490150803e+00,3.707069650490150803e+00,0.000000000000000000e+00
3.806362685441135874e+00,3.806362685441135874e+00,0.000000000000000000e+00
3.905726416897022268e+00,3.905726416897022268e+00,0.000000000000000000e+00
4.005153775207319633e+00,4.005153775207319633e+00,0.000000000000000000e+00
4.104638397686587226e+00,4.104638397686587226e+00,0.000000000000000000e+00
4.204174557917928823e+00,4.204174557917928823e+00,0.000000000000000000e+00
4.303757102126136047e+00,4.303757102126136047e+00,0.000000000000000000e+00
4.403381391913522513e+00,4.403381391913522513e+00,0.000000000000000000e+00
4.503043252722170209e+00,4.503043252722170209e+00,0.000000000000000000e+00
4.602738927449952833e+00,4.602738927449952833e+00,0.000000000000000000e+00
4.702465034704957247e+00,4.702465034704957247e+00,0.000000000000000000e+00
4.802218531234461629e+00,4.802218531234461629e+00,0.000000000000000000e+00
4.901996678111015804e+00,4.901996678111015804e+00,0.000000000000000000e+00
5.001797010299914525e+00,5.001797010299914525e+00,0.000000000000000000e+00
5.101617309269923517e+00,5.101617309269923517e+00,0.000000000000000000e+00
5.201455578342931041e+00,5.201455578342931041e+00,0.000000000000000000e+00
5.301310020508638310e+00,5.301310020508638310e+00,0.000000000000000000e+00
5.401179018457774816e+00,5.401179018457774816e+00,0.000000000000000000e+00
5.501061116611997370e+00,5.501061116611997370e+00,0.000000000000000000e+00
5.600955004950797900e+00,5.600955004950797900e+00,0.000000000000000000e+00
5.700859504455718429e+00,5.700859504455718429e+00,0.000000000000000000e+00
5.800773554010146604e+00,5.800773554010146604e+00,0.000000000000000000e+00
5.900696198609131748e+00,5.900696198609131748e+00,0.000000000000000000e+00
6.000626578748218698e+00,6.000626578748218698e+00,0.000000000000000000e+00
6.100563920873397272e+00,6.100563920873397272e+00,0.000000000000000000e+00
6.200507528786057598e+00,6.200507528786057598e+00,0.000000000000000000e+00
6.300456775907451679e+00,6.300456775907451679e+00,0.000000000000000000e+00
6.400411098316706848e+00,6.400411098316706848e+00,0.000000000000000000e+00
6.500369988485036110e+00,6.500369988485036110e+00,0.000000000000000000e+00
6.600332989636532588e+00,6.600332989636532588e+00,0.000000000000000000e+00
6.700299690672879116e+00,6.700299690672879116e+00,0.000000000000000000e+00
6.800269721605591400e+00,6.800269721605591400e+00,0.000000000000000000e+00
6.900242749445032686e+00,6.900242749445032686e+00,0.000000000000000000e+00
7.000218474500529808e+00,7.000218474500529808e+00,0.000000000000000000e+00
7.100196627050476827e+00,7.100196627050476827e+00,0.000000000000000000e+00
7.200176964345429198e+00,7.200176964345429198e+00,0.000000000000000000e+00
7.300159267910886207e+00,7.300159267910886207e+00,0.000000000000000000e+00
7.400143341119798102e+00,7.400143341119798102e+00,0.000000000000000000e+00
7.500129007007818593e+00,7.500129007007818593e+00,0.000000000000000000e+00
7.600116106307036823e+00,7.600116106307036823e+00,0.000000000000000000e+00
7.700104495676333372e+00,7.700104495676333372e+00,0.000000000000000000e+00
7.800094046108700496e+00,7.800094046108700496e+00,0.000000000000000000e+00
7.900084641497830518e+00,7.900084641497830518e+00,0.000000000000000000e+00
8.000076177348047324e+00,8.000076177348047324e+00,0.000000000000000000e+00
8.100068559613243124e+00,8.100068559613243124e+00,0.000000000000000000e+00
8.200061703651918776e+00,8.200061703651918776e+00,0.000000000000000000e+00
8.300055533286727183e+00,8.300055533286727183e+00,0.000000000000000000e+00
8.400049979958055246e+00,8.400049979958055246e+00,0.000000000000000000e+00
8.500044981962249224e+00,8.500044981962249224e+00,0.000000000000000000e+00
8.600040483766024479e+00,8.600040483766024479e+00,0.000000000000000000e+00
8.700036435389423062e+00,8.700036435389423062e+00,0.000000000000000000e+00
8.800032791850480152e+00,8.800032791850480152e+00,0.000000000000000000e+00
8.900029512665431852e+00,8.900029512665431852e+00,0.000000000000000000e+00
9.000026561398888347e+00,9.000026561398888347e+00,0.000000000000000000e+00
9.100023905259000401e+00,9.100023905259000401e+00,0.000000000000000000e+00
9.200021514733100148e+00,9.200021514733100148e+00,0.000000000000000000e+00
9.300019363259790950e+00,9.300019363259790950e+00,0.000000000000000000e+00
9.400017426933812814e+00,9.400017426933812814e+00,0.000000000000000000e+00
9.500015684240432634e+00,9.500015684240432634e+00,0.000000000000000000e+00
9.600014115816389193e+00,9.600014115816389193e+00,0.000000000000000000e+00
9.700012704234751482e+00,9.700012704234751482e+00,0.000000000000000000e+00
9.800011433811276262e+00,9.800011433811276262e+00,0.000000000000000000e+00
9.900010290430149240e+00,9.900010290430149240e+00,0.000000000000000000e+00
1.000000926138713453e+01,1.000000926138713453e+01,0.000000000000000000e+00
1.010000833524842179e+01,1.010000833524842179e+01,0.000000000000000000e+00
1.020000750172357940e+01,1.020000750172357940e+01,0.000000000000000000e+00
1.030000675155122103e+01,1.030000675155122103e+01,0.000000000000000000e+00
1.040000607639609953e+01,1.040000607639609953e+01,0.000000000000000000e+00
1.050000546875648944e+01,1.050000546875648944e+01,0.000000000000000000e+00
1.060000492188084031e+01,1.060000492188084031e+01,0.000000000000000000e+00
1.070000442969275589e+01,1.070000442969275589e+01,0.000000000000000000e+00
1.080000398672348005e+01,1.080000398672348005e+01,0.000000000000000000e+00
1.090000358805113301e+01,1.090000358805113301e+01,0.000000000000000000e+00
1.100000322924602081e+01,1.100000322924602081e+01,0.000000000000000000e+00
1.110000290632141962e+01,1.110000290632141962e+01,0.000000000000000000e+00
1.120000261568927868e+01,1.120000261568927868e+01,0.000000000000000000e+00
1.130000235412035181e+01,1.130000235412035181e+01,0.000000000000000000e+00
1.140000211870831670e+01,1.140000211870831670e+01,0.000000000000000000e+00
1.150000190683748613e+01,1.150000190683748613e+01,0.000000000000000000e+00
1.160000171615373787e+01,1.160000171615373787e+01,0.000000000000000000e+00
1.170000154453836494e+01,1.170000154453836494e+01,0.000000000000000000e+00
1.180000139008452820e+01,1.180000139008452820e+01,0.000000000000000000e+00
1.190000125107607509e+01,1.190000125107607509e+01,0.000000000000000000e+00
1.200000112596846868e+01,1.200000112596846868e+01,0.000000000000000000e+00
1.210000101337162270e+01,1.210000101337162270e+01,0.000000000000000000e+00
1.220000091203446146e+01,1.220000091203446146e+01,0.000000000000000000e+00
1.230000082083101631e+01,1.230000082083101631e+01,0.000000000000000000e+00
1.240000073874791475e+01,1.240000073874791475e+01,0.000000000000000000e+00
1.250000066487312367e+01,1.250000066487312367e+01,0.000000000000000000e+00
1.260000059838581166e+01,1.260000059838581166e+01,0.000000000000000000e+00
1.270000053854723099e+01,1.270000053854723099e+01,0.000000000000000000e+00
1.280000048469250906e+01,1.280000048469250906e+01,0.000000000000000000e+00
1.290000043622325876e+01,1.290000043622325876e+01,0.000000000000000000e+00
1.300000039260093310e+01,1.300000039260093310e+01,0.000000000000000000e+00
1.310000035334084068e+01,1.310000035334084068e+01,0.000000000000000000e+00
1.320000031800675799e+01,1.320000031800675799e+01,0.000000000000000000e+00
1.330000028620608354e+01,1.330000028620608354e+01,0.000000000000000000e+00
1.340000025758547508e+01,1.340000025758547508e+01,0.000000000000000000e+00
1.350000023182692743e+01,1.350000023182692743e+01,0.000000000000000000e+00
1.360000020864423576e+01,1.360000020864423576e+01,0.000000000000000000e+00
1.370000018777981232e+01,1.370000018777981232e+01,0.000000000000000000e+00
1.380000016900183191e+01,1.380000016900183191e+01,0.000000000000000000e+00
1.390000015210164896e+01,1.390000015210164896e+01,0.000000000000000000e+00
1.400000013689148481e+01,1.400000013689148481e+01,0.000000000000000000e+00
1.410000012320233687e+01,1.410000012320233687e+01,0.000000000000000000e+00
1.420000011088210456e+01,1.420000011088210456e+01,0.000000000000000000e+00
1.430000009979389475e+01,1.430000009979389475e+01,0.000000000000000000e+00
1.440000008981450641e+01,1.440000008981450641e+01,0.000000000000000000e+00
1.450000008083305580e+01,1.450000008083305580e+01,0.000000000000000000e+00
1.460000007274975076e+01,1.460000007274975076e+01,0.000000000000000000e+00
1.470000006547477689e+01,1.470000006547477689e+01,0.000000000000000000e+00
1.480000005892729931e+01,1.480000005892729931e+01,0.000000000000000000e+00
1.490000005303457087e+01,1.490000005303457087e+01,0.000000000000000000e+00
1.500000004773111506e+01,1.500000004773111506e+01,0.000000000000000000e+00
1.510000004295800480e+01,1.510000004295800480e+01,0.000000000000000000e+00
1.520000003866220517e+01,1.520000003866220517e+01,0.000000000000000000e+00
1.530000003479598547e+01,1.530000003479598547e+01,0.000000000000000000e+00
1.540000003131638806e+01,1.540000003131638806e+01,0.000000000000000000e+00
1.550000002818475053e+01,1.550000002818475053e+01,0.000000000000000000e+00
1.560000002536627584e+01,1.560000002536627584e+01,0.000000000000000000e+00
1.570000002282964857e+01,1.570000002282964857e+01,0.000000000000000000e+00
1.580000002054668506e+01,1.580000002054668506e+01,0.000000000000000000e+00
1.590000001849201716e+01,1.590000001849201716e+01,0.000000000000000000e+00
1.600000001664281513e+01,1.600000001664281513e+01,0.000000000000000000e+00
1.610000001497853361e+01,1.610000001497853361e+01,0.000000000000000000e+00
1.620000001348068253e+01,1.620000001348068253e+01,0.000000000000000000e+00
1.630000001213261385e+01,1.630000001213261385e+01,0.000000000000000000e+00
1.640000001091935289e+01,1.640000001091935289e+01,0.000000000000000000e+00
1.650000000982741710e+01,1.650000000982741710e+01,0.000000000000000000e+00
1.660000000884467752e+01,1.660000000884467752e+01,0.000000000000000000e+00
1.670000000796020956e+01,1.670000000796020956e+01,0.000000000000000000e+00
1.680000000716418995e+01,1.680000000716418995e+01,0.000000000000000000e+00
1.690000000644777245e+01,1.690000000644777245e+01,0.000000000000000000e+00
1.700000000580299542e+01,1.700000000580299542e+01,0.000000000000000000e+00
1.710000000522269659e+01,1.710000000522269659e+01,0.000000000000000000e+00
1.720000000470042778e+01,1.720000000470042778e+01,0.000000000000000000e+00
1.730000000423038742e+01,1.730000000423038742e+01,0.000000000000000000e+00
1.740000000380734946e+01,1.740000000380734946e+01,0.000000000000000000e+00
1.750000000342661366e+01,1.750000000342661366e+01,0.000000000000000000e+00
1.760000000308395229e+01,1.760000000308395229e+01,0.000000000000000000e+00
1.770000000277555685e+01,1.770000000277555685e+01,0.000000000000000000e+00
1.780000000249800252e+01,1.780000000249800252e+01,0.000000000000000000e+00
1.790000000224820198e+01,1.790000000224820198e+01,0.000000000000000000e+00
1.800000000202338413e+01,1.800000000202338413e+01,0.000000000000000000e+00
1.810000000182104785e+01,1.810000000182104785e+01,0.000000000000000000e+00
1.820000000163894427e+01,1.820000000163894427e+01,0.000000000000000000e+00
1.830000000147505190e+01,1.830000000147505190e+01,0.000000000000000000e+00
1.840000000132754820e+01,1.840000000132754820e+01,0.000000000000000000e+00
1.850000000119479537e+01,1.850000000119479537e+01,0.000000000000000000e+00
1.860000000107531548e+01,1.860000000107531548e+01,0.000000000000000000e+00
1.870000000096778336e+01,1.870000000096778336e+01,0.000000000000000000e+00
1.880000000087100531e+01,1.880000000087100531e+01,0.000000000000000000e+00
1.890000000078390485e+01,1.890000000078390485e+01,0.000000000000000000e+00
1.900000000070551565e+01,1.900000000070551565e+01,0.000000000000000000e+00
1.910000000063496373e+01,1.910000000063496373e+01,0.000000000000000000e+00
1.917492230737845915e+01,1.920504716516221677e+01,2.679428597127287565e-02
1.922705772890326514e+01,1.931468467920741361e+01,7.803122360711228778e-02
1.925848428171483562e+01,1.942834937229781644e+01,1.515199481726665076e-01
1.927108727586247383e+01,1.954541417050355179e+01,2.452285099956118264e-01
1.926657823969486927e+01,1.966522040725405773e+01,3.572791205696538297e-01
1.924651238272196707e+01,1.978710200701265620e+01,4.859414998280054410e-01
1.921230448337290753e+01,1.991040321015705317e+01,6.296250540446776123e-01
1.916524320637540058e+01,2.003449120810239847e+01,7.868704118127831659e-01
1.910650392418095578e+01,2.015876480317970731e+01,9.563406954944905225e-01
1.903716015426209296e+01,2.028265999424408150e+01,1.136812794411327987e+00
1.895819374045223427e+01,2.040565321168260482e+01,1.327168824006387027e+00
1.887050390959185719e+01,2.052726277947965272e+01,1.526387894863204586e+00
1.877491532991168555e+01,2.064704906256827854e+01,1.733538271266800379e+00
1.867218528839014269e+01,2.076461366057514724e+01,1.947769966798599706e+00
1.856301009309275329e+01,2.087959793049267176e+01,2.168307801179546690e+00
1.844803079470543494e+01,2.099168105754892366e+01,2.394444925913294497e+00
1.832783830999556329e+01,2.110057784284577309e+01,2.625536814520671225e+00
1.820297801926882997e+01,2.120603633589526993e+01,2.860995705022557622e+00
1.807395390027514281e+01,2.130783540808605636e+01,3.100285476871611046e+00
1.794123225253000342e+01,2.140578233777089778e+01,3.342916941047052948e+00
1.780524505863908402e+01,2.149971045777941825e+01,3.588443519984268359e+00
1.766639302286649382e+01,2.158947690066002423e+01,3.836457293019497339e+00
1.752504832176922633e+01,2.167496046496936657e+01,4.086585382796454446e+00
1.738155709711793406e+01,2.175605961674904876e+01,4.338486658387712858e+00
1.723624171742676126e+01,2.183269063338147831e+01,4.591848731565977282e+00
1.708940283111747505e+01,2.190478589183531000e+01,4.846385223597449610e+00
1.694132123155210223e+01,2.197229229952020191e+01,5.101833281030923928e+00
1.679225955180137930e+01,2.203516986326880200e+01,5.357951320154938912e+00
1.664246380500240718e+01,2.209339039010868433e+01,5.614516981041935750e+00
1.649216478443836920e+01,2.214693631228468007e+01,5.871325273356693408e+00
1.634157933599549395e+01,2.219579962828839115e+01,6.128186897350193618e+00
1.619091151437598342e+01,2.223998095132413866e+01,6.384926724671116993e+00
1.604035363333609965e+01,2.227948865659219635e+01,6.641382424792293904e+00
1.589008721924778023e+01,2.231433811892503982e+01,6.897403223960498764e+00
1.574028387642740690e+01,2.234455103261088027e+01,7.152848784629442846e+00
1.559110607191730047e+01,2.237015480563467662e+01,7.407588194325108510e+00
1.544270784673013885e+01,2.239118202102482158e+01,7.661499053818682015e+00
1.529523545996055489e+01,2.240766995848663257e+01,7.914466655345623991e+00
1.514882797162207595e+01,2.241966017001117706e+01,8.166383242411260568e+00
1.500361776957345405e+01,2.242719810365496613e+01,8.417147343465787301e+00
1.485973104544924439e+01,2.243033277018174587e+01,8.666663172417242933e+00
1.471728822409987281e+01,2.242911644773417379e+01,8.914840089582630966e+00
1.457640435067242457e+01,2.242360442015572630e+01,9.161592117258086532e+00
1.443718943912029751e+01,2.241385474500842179e+01,9.406837504621773149e+00
1.429974878561524676e+01,2.239992804772806068e+01,9.650498337171326213e+00
1.416418325004648082e+01,2.238188733872524594e+01,9.892500186344028279e+00
1.403058950852560294e+01,2.235979785057752878e+01,1.013277179537564976e+01
1.389906027957151835e+01,2.233372689276623646e+01,1.037124479782587194e+01
1.376968452642470453e+01,2.230374372169248076e+01,1.060785346553706887e+01
1.364254763773286072e+01,2.226991942396156787e+01,1.084253448310173873e+01
1.351773158865935009e+01,2.223232681115520748e+01,1.107522674619440828e+01
1.339531508429064743e+01,2.219104032451841491e+01,1.130587118137862568e+01
1.327537368705738530e+01,2.214613594817448927e+01,1.153441058523105944e+01
1.315797992973554642e+01,2.209769112964838556e+01,1.176078948083456410e+01
1.304320341545781581e+01,2.204578470662819711e+01,1.198495398988223926e+01
1.293111090604014990e+01,2.199049683902764940e+01,1.220685171880693787e+01
1.282176639981352118e+01,2.193190894553106318e+01,1.242643165750643952e+01
1.271523120004554031e+01,2.187010364390753381e+01,1.264364408937588991e+01
1.261156397494002412e+01,2.180516469447454142e+01,1.285844051148648504e+01
1.251082081011398550e+01,2.173717694617374008e+01,1.307077356386485079e+01
1.241305525437058321e+01,2.166622628479478863e+01,1.328059696693168235e+01
1.231831835951239640e+01,2.159239958294745421e+01,1.348786546625230365e+01
1.222665871487153666e+01,2.151578465143888863e+01,1.369253478383666511e+01
1.213812247717128123e+01,2.143647019176294677e+01,1.389456157530296565e+01
1.205275339627717912e+01,2.135454574945202211e+01,1.409390339228807498e+01
